frequency - Sound Pressure_29	Amplitude - Sound Pressure_29	frequency - Acceleration	Amplitude - Acceleration
0	0.590038	0	-0.00601943
1.95E-05	0.589953	1.95E-05	-0.0060219
3.91E-05	0.589953	3.91E-05	-0.00607007
5.86E-05	0.586678	5.86E-05	-0.00601943
7.81E-05	0.58171	7.81E-05	-0.00582924
9.77E-05	0.577504	9.77E-05	-0.00585888
0.000117	0.573016	0.000117	-0.00578725
0.000137	0.56466	0.000137	-0.00569586
0.000156	0.559494	0.000156	-0.0057996
0.000176	0.553312	0.000176	-0.0056514
0.000195	0.542924	0.000195	-0.00550073
0.000215	0.537363	0.000215	-0.00544392
0.000234	0.526862	0.000234	-0.00538958
0.000254	0.519014	0.000254	-0.00526361
0.000273	0.508146	0.000273	-0.00523149
0.000293	0.496854	0.000293	-0.0052599
0.000312	0.484603	0.000312	-0.00512775
0.000332	0.474243	0.000332	-0.00506353
0.000352	0.462472	0.000352	-0.00500796
0.000371	0.44912	0.000371	-0.00480665
0.000391	0.43605	0.000391	-0.00476466
0.00041	0.419564	0.00041	-0.00457571
0.00043	0.408075	0.00043	-0.00446949
0.000449	0.393932	0.000449	-0.0043497
0.000469	0.378068	0.000469	-0.00422496
0.000488	0.364377	0.000488	-0.00411505
0.000508	0.349783	0.000508	-0.00403107
0.000527	0.331039	0.000527	-0.00407429
0.000547	0.314751	0.000547	-0.00383717
0.000566	0.296741	0.000566	-0.00391621
0.000586	0.280001	0.000586	-0.00378407
0.000605	0.263431	0.000605	-0.00353212
0.000625	0.246691	0.000625	-0.0033444
0.000645	0.228117	0.000645	-0.00324931
0.000664	0.209288	0.000664	-0.00326783
0.000684	0.189217	0.000684	-0.00310852
0.000703	0.173607	0.000703	-0.00287139
0.000723	0.153508	0.000723	-0.00278988
0.000742	0.133155	0.000742	-0.00273184
0.000762	0.115823	0.000762	-0.00264539
0.000781	0.0955261	0.000781	-0.00266268
0.000801	0.0740158	0.000801	-0.00238851
0.00082	0.0557236	0.00082	-0.00236628
0.00084	0.0388428	0.00084	-0.00230576
0.000859	0.0194496	0.000859	-0.00207852
0.000879	-0.000818634	0.000879	-0.00206123
0.000898	-0.0235428	0.000898	-0.00207852
0.000918	-0.0427666	0.000918	-0.0018414
0.000937	-0.0625267	0.000937	-0.00173766
0.000957	-0.0796898	0.000957	-0.00163392
0.000977	-0.103543	0.000977	-0.00158081
0.000996	-0.12144	0.000996	-0.0015203
0.001016	-0.140833	0.001016	-0.00138074
0.001035	-0.159267	0.001035	-0.00136962
0.001055	-0.178321	0.001055	-0.00129676
0.001074	-0.197601	0.001074	-0.00131034
0.001094	-0.216966	0.001094	-0.00128935
0.001113	-0.233791	0.001113	-0.00115597
0.001133	-0.251067	0.001133	-0.00114238
0.001152	-0.26823	0.001152	-0.00134616
0.001172	-0.289147	0.001172	-0.00114979
0.001191	-0.305181	0.001191	-0.00124365
0.001211	-0.323417	0.001211	-0.00128441
0.00123	-0.339536	0.00123	-0.00126959
0.00125	-0.356416	0.00125	-0.00141779
0.00127	-0.374172	0.00127	-0.00155488
0.001289	-0.387073	0.001289	-0.00162774
0.001309	-0.402853	0.001309	-0.00170184
0.001328	-0.41787	0.001328	-0.00188339
0.001348	-0.433763	0.001348	-0.00187104
0.001367	-0.446325	0.001367	-0.00193896
0.001387	-0.462585	0.001387	-0.00194267
0.001406	-0.472324	0.001406	-0.00220696
0.001426	-0.484603	0.001426	-0.00240333
0.001445	-0.495838	0.001445	-0.00250583
0.001465	-0.510545	0.001465	-0.00279112
0.001484	-0.521696	0.001484	-0.00284422
0.001504	-0.532648	0.001504	-0.00288498
0.001523	-0.54075	0.001523	-0.00329994
0.001543	-0.553171	0.001543	-0.00329624
0.001562	-0.560115	0.001562	-0.00360993
0.001582	-0.569826	0.001582	-0.00370502
0.001602	-0.575274	0.001602	-0.00389275
0.001621	-0.582642	0.001621	-0.00399772
0.001641	-0.589586	0.001641	-0.00414098
0.00166	-0.593764	0.00166	-0.00434846
0.00168	-0.600793	0.00168	-0.00458682
0.001699	-0.604886	0.001699	-0.00465228
0.001719	-0.610193	0.001719	-0.00488322
0.001738	-0.609459	0.001738	-0.00493386
0.001758	-0.6131	0.001758	-0.00505736
0.001777	-0.61598	0.001777	-0.00514257
0.001797	-0.615472	0.001797	-0.00539328
0.001816	-0.615331	0.001816	-0.0054044
0.001836	-0.616516	0.001836	-0.00561188
0.001855	-0.616008	0.001855	-0.00551555
0.001875	-0.612677	0.001875	-0.00545256
0.001895	-0.610645	0.001895	-0.00567857
0.001914	-0.608584	0.001914	-0.00566004
0.001934	-0.604971	0.001934	-0.00566251
0.001953	-0.598534	0.001953	-0.00576996
0.001973	-0.594498	0.001973	-0.00572179
0.001992	-0.592409	0.001992	-0.00567486
0.002012	-0.583065	0.002012	-0.00571809
0.002031	-0.576629	0.002031	-0.00578725
0.002051	-0.567878	0.002051	-0.00577737
0.00207	-0.561639	0.00207	-0.00579836
0.00209	-0.552691	0.00209	-0.00579713
0.002109	-0.544138	0.002109	-0.005602
0.002129	-0.533157	0.002129	-0.00548838
0.002148	-0.522373	0.002148	-0.00566498
0.002168	-0.510489	0.002168	-0.0056267
0.002187	-0.501286	0.002187	-0.00554148
0.002207	-0.487313	0.002207	-0.00557977
0.002227	-0.473537	0.002227	-0.00526361
0.002246	-0.462923	0.002246	-0.00538093
0.002266	-0.450277	0.002266	-0.00537352
0.002285	-0.434412	0.002285	-0.00541675
0.002305	-0.420609	0.002305	-0.00534512
0.002324	-0.406099	0.002324	-0.00532536
0.002344	-0.391476	0.002344	-0.0052846
0.002363	-0.375443	0.002363	-0.0052809
0.002383	-0.358816	0.002383	-0.0051611
0.002402	-0.344193	0.002402	-0.00534265
0.002422	-0.327482	0.002422	-0.00535129
0.002441	-0.309754	0.002441	-0.00538217
0.002461	-0.292139	0.002461	-0.00534759
0.00248	-0.276924	0.00248	-0.00544639
0.0025	-0.25739	0.0025	-0.0053587
0.00252	-0.238194	0.00252	-0.005334
0.002539	-0.218039	0.002539	-0.00546368
0.002559	-0.200452	0.002559	-0.0056798
0.002578	-0.180212	0.002578	-0.005602
0.002598	-0.16415	0.002598	-0.00561682
0.002617	-0.142894	0.002617	-0.0057045
0.002637	-0.12607	0.002637	-0.00573044
0.002656	-0.106168	0.002656	-0.00602931
0.002676	-0.0833313	0.002676	-0.00586382
0.002695	-0.0671562	0.002695	-0.00594533
0.002715	-0.0459846	0.002715	-0.00605154
0.002734	-0.0256599	0.002734	-0.00608736
0.002754	-0.00708542	0.002754	-0.0060466
0.002773	0.0100777	0.002773	-0.00621209
0.002793	0.0333382	0.002793	-0.00618245
0.002812	0.0505577	0.002812	-0.00629113
0.002832	0.0726891	0.002832	-0.00641587
0.002852	0.0905296	0.002852	-0.00635906
0.002871	0.111983	0.002871	-0.00636894
0.002891	0.130699	0.002891	-0.00641587
0.00291	0.149471	0.00291	-0.00646033
0.00293	0.16909	0.00293	-0.00655789
0.002949	0.187072	0.002949	-0.00661594
0.002969	0.20607	0.002969	-0.00646156
0.002988	0.223967	0.002988	-0.00651714
0.003008	0.241808	0.003008	-0.00625408
0.003027	0.259874	0.003027	-0.00653443
0.003047	0.280312	0.003047	-0.00649367
0.003066	0.295414	0.003066	-0.00654554
0.003086	0.313622	0.003086	-0.00640846
0.003105	0.32751	0.003105	-0.00626026
0.003125	0.344843	0.003125	-0.00607995
0.003145	0.360425	0.003145	-0.00629731
0.003164	0.37883	0.003164	-0.00637264
0.003184	0.393961	0.003184	-0.00606142
0.003203	0.406042	0.003203	-0.00603672
0.003223	0.41931	0.003223	-0.0060676
0.003242	0.433396	0.003242	-0.0059478
0.003262	0.450729	0.003262	-0.00579713
0.003281	0.459649	0.003281	-0.00574402
0.003301	0.475062	0.003301	-0.00577613
0.00332	0.486353	0.00332	-0.00564893
0.00334	0.494794	0.00334	-0.00556124
0.003359	0.506198	0.003359	-0.00524508
0.003379	0.516502	0.003379	-0.00522285
0.003398	0.529826	0.003398	-0.00519815
0.003418	0.534116	0.003418	-0.00524755
0.003437	0.5449	0.003437	-0.00487581
0.003457	0.554723	0.003457	-0.00473132
0.003477	0.56068	0.003477	-0.00475355
0.003496	0.57056	0.003496	-0.00447073
0.003516	0.573241	0.003516	-0.00445344
0.003535	0.578436	0.003535	-0.00431635
0.003555	0.584702	0.003555	-0.0042052
0.003574	0.58521	0.003574	-0.00401625
0.003594	0.591082	0.003594	-0.00394709
0.003613	0.593651	0.003613	-0.00357288
0.003633	0.59286	0.003633	-0.0035383
0.003652	0.595599	0.003652	-0.00349384
0.003672	0.595316	0.003672	-0.00325178
0.003691	0.595486	0.003691	-0.00329377
0.003711	0.594441	0.003711	-0.00300231
0.00373	0.593425	0.00373	-0.00294426
0.00375	0.592211	0.00375	-0.00273431
0.00377	0.591223	0.00377	-0.00274295
0.003789	0.585069	0.003789	-0.00261698
0.003809	0.582529	0.003809	-0.00247125
0.003828	0.57598	0.003828	-0.00229835
0.003848	0.571745	0.003848	-0.00220202
0.003867	0.565281	0.003867	-0.00191426
0.003887	0.556841	0.003887	-0.00196366
0.003906	0.550094	0.003906	-0.00195625
0.003926	0.540383	0.003926	-0.00162774
0.003945	0.532987	0.003945	-0.0016969
0.003965	0.524547	0.003965	-0.00166603
0.003984	0.512211	0.003984	-0.0014993
0.004004	0.503291	0.004004	-0.00143508
0.004023	0.491519	0.004023	-0.0013017
0.004043	0.480284	0.004043	-0.00139556
0.004062	0.467525	0.004062	-0.00133504
0.004082	0.455245	0.004082	-0.00124983
0.004102	0.442006	0.004102	-0.00111521
0.004121	0.429726	0.004121	-0.00123377
0.004141	0.417588	0.004141	-0.000994182
0.00416	0.402542	0.00416	-0.000948486
0.00418	0.386141	0.00418	-0.001009
0.004199	0.370869	0.004199	-0.000906496
0.004219	0.352634	0.004219	-0.00102012
0.004238	0.338435	0.004238	-0.000991712
0.004258	0.321808	0.004258	-0.000976892
0.004277	0.305746	0.004277	-0.000917611
0.004297	0.288554	0.004297	-0.000965776
0.004316	0.269641	0.004316	-0.000943546
0.004336	0.253607	0.004336	-0.000960836
0.004355	0.236868	0.004355	-0.000934901
0.004375	0.217107	0.004375	-0.000904026
0.004395	0.200283	0.004395	-0.00079905
0.004414	0.181172	0.004414	-0.000971951
0.004434	0.162259	0.004434	-0.000883031
0.004453	0.14089	0.004453	-0.000943546
0.004473	0.123388	0.004473	-0.000933666
0.004492	0.102527	0.004492	-0.000944781
0.004512	0.0833595	0.004512	-0.00114362
0.004531	0.065773	0.004531	-0.00106211
0.004551	0.044799	0.004551	-0.00112139
0.00457	0.0245308	0.00457	-0.00113991
0.00459	0.00437546	0.00459	-0.000973186
0.004609	-0.0148483	0.004609	-0.000922551
0.004629	-0.0322655	0.004629	-0.00109298
0.004648	-0.0531265	0.004648	-0.00106581
0.004668	-0.0715881	0.004668	-0.00114362
0.004687	-0.0931549	0.004687	-0.0011288
0.004707	-0.111447	0.004707	-0.00118561
0.004727	-0.131546	0.004727	-0.00120784
0.004746	-0.15173	0.004746	-0.00103988
0.004766	-0.169401	0.004766	-0.00107693
0.004785	-0.190234	0.004785	-0.000973186
0.004805	-0.207538	0.004805	-0.00106705
0.004824	-0.225604	0.004824	-0.000832396
0.004844	-0.242457	0.004844	-0.000892911
0.004863	-0.26233	0.004863	-0.000815105
0.004883	-0.279775	0.004883	-0.000926256
0.004902	-0.298293	0.004902	-0.000881796
0.004922	-0.314073	0.004922	-0.00070766
0.004941	-0.329514	0.004941	-0.000706425
0.004961	-0.347976	0.004961	-0.000671844
0.00498	-0.364292	0.00498	-0.000470538
0.005	-0.381568	0.005	-0.000428548
0.00502	-0.397433	0.00502	-0.000427313
0.005039	-0.411519	0.005039	-0.000342097
0.005059	-0.425661	0.005059	-0.000211186
0.005078	-0.440256	0.005078	-4.45E-05
0.005098	-0.455273	0.005098	0.000203776
0.005117	-0.467948	0.005117	0.000505118
0.005137	-0.481103	0.005137	0.000743475
0.005156	-0.492705	0.005156	0.00109669
0.005176	-0.502274	0.005176	0.00150918
0.005195	-0.516332	0.005195	0.0011535
0.005215	-0.525111	0.005215	0.000295167
0.005234	-0.536008	0.005234	-0.000592804
0.005254	-0.546763	0.005254	-3.71E-05
0.005273	-0.55749	0.005273	0.00217485
0.005293	-0.562345	0.005293	0.00479677
0.005312	-0.573213	0.005312	0.00626767
0.005332	-0.580327	0.005332	0.00615528
0.005352	-0.585069	0.005352	0.0049141
0.005371	-0.592042	0.005371	0.0024552
0.005391	-0.595966	0.005391	-0.00179694
0.00541	-0.600002	0.00541	-0.00845116
0.00543	-0.607229	0.00543	-0.0154055
0.005449	-0.606523	0.005449	-0.0211248
0.005469	-0.612677	0.005469	-0.0235862
0.005488	-0.614738	0.005488	-0.0238122
0.005508	-0.612592	0.005508	-0.0215299
0.005527	-0.615697	0.005527	-0.0164935
0.005547	-0.614794	0.005547	-0.00843881
0.005566	-0.616911	0.005566	0.0012066
0.005586	-0.612988	0.005586	0.0119104
0.005605	-0.610306	0.005605	0.0210878
0.005625	-0.606834	0.005625	0.0302614
0.005645	-0.602882	0.005645	0.0375405
0.005664	-0.600482	0.005664	0.0462597
0.005684	-0.595316	0.005684	0.0546084
0.005703	-0.59063	0.005703	0.0603549
0.005723	-0.584364	0.005723	0.0672338
0.005742	-0.578012	0.005742	0.0805497
0.005762	-0.570164	0.005762	0.0909324
0.005781	-0.559184	0.005781	0.10115
0.005801	-0.549642	0.005801	0.110509
0.00582	-0.544759	0.00582	0.113001
0.00584	-0.529487	0.00584	0.115167
0.005859	-0.520567	0.005859	0.114685
0.005879	-0.511025	0.005879	0.10938
0.005898	-0.496064	0.005898	0.093952
0.005918	-0.484208	0.005918	0.0744846
0.005937	-0.470065	0.005937	0.0586333
0.005957	-0.456628	0.005957	0.0300836
0.005977	-0.441949	0.005977	-0.00228106
0.005996	-0.426819	0.005996	-0.0429536
0.006016	-0.412479	0.006016	-0.0900346
0.006035	-0.398505	0.006035	-0.139982
0.006055	-0.383742	0.006055	-0.199446
0.006074	-0.367002	0.006074	-0.260711
0.006094	-0.351166	0.006094	-0.331276
0.006113	-0.339902	0.006113	-0.413517
0.006133	-0.324405	0.006133	-0.497183
0.006152	-0.30696	0.006152	-0.582648
0.006172	-0.288357	0.006172	-0.68238
0.006191	-0.27221	0.006191	-0.775967
0.006211	-0.255611	0.006211	-0.877019
0.00623	-0.240029	0.00623	-0.981754
0.00625	-0.222386	0.00625	-1.08868
0.00627	-0.206522	0.00627	-1.20067
0.006289	-0.191758	0.006289	-1.29909
0.006309	-0.176035	0.006309	-1.39987
0.006328	-0.157516	0.006328	-1.50578
0.006348	-0.142471	0.006348	-1.61297
0.006367	-0.125985	0.006367	-1.69919
0.006387	-0.106761	0.006387	-1.78652
0.006406	-0.0882996	0.006406	-1.86929
0.006426	-0.0729996	0.006426	-1.93646
0.006445	-0.0570786	0.006445	-1.98107
0.006465	-0.041835	0.006465	-1.99886
0.006484	-0.0221031	0.006484	-2.0277
0.006504	-0.00386734	0.006504	-1.98842
0.006523	0.0111504	0.006523	-1.97814
0.006543	0.0295837	0.006543	-1.95122
0.006562	0.0474808	0.006562	-1.89254
0.006582	0.0667046	0.006582	-1.78634
0.006602	0.082682	0.006602	-1.64407
0.006621	0.103007	0.006621	-1.54275
0.006641	0.117093	0.006641	-1.39735
0.00666	0.137079	0.00666	-1.21094
0.00668	0.153903	0.00668	-0.959752
0.006699	0.174595	0.006699	-0.688793
0.006719	0.192802	0.006719	-0.472875
0.006738	0.210445	0.006738	-0.173642
0.006758	0.230318	0.006758	0.145905
0.006777	0.248215	0.006777	0.557675
0.006797	0.268145	0.006797	0.949451
0.006816	0.28672	0.006816	1.33036
0.006836	0.304729	0.006836	1.62432
0.006855	0.327962	0.006855	2.06611
0.006875	0.347496	0.006875	2.46549
0.006895	0.368272	0.006895	3.00638
0.006914	0.383968	0.006914	3.37683
0.006934	0.402345	0.006934	3.90057
0.006953	0.422443	0.006953	4.37085
0.006973	0.442232	0.006973	4.82597
0.006992	0.459536	0.006992	5.37189
0.007012	0.478477	0.007012	5.8596
0.007031	0.494878	0.007031	6.46527
0.007051	0.516078	0.007051	6.93395
0.00707	0.53056	0.00707	7.383
0.00709	0.545408	0.00709	7.72356
0.007109	0.562627	0.007109	8.06733
0.007129	0.573016	0.007129	8.36897
0.007148	0.587666	0.007148	8.61731
0.007168	0.603305	0.007168	8.83493
0.007187	0.616798	0.007187	9.07645
0.007207	0.624223	0.007207	9.38885
0.007227	0.634949	0.007227	9.65002
0.007246	0.639692	0.007246	9.82409
0.007266	0.650447	0.007266	9.85551
0.007285	0.658577	0.007285	9.90199
0.007305	0.668316	0.007305	9.90908
0.007324	0.675063	0.007324	9.9219
0.007344	0.677773	0.007344	9.85714
0.007363	0.68195	0.007363	9.77316
0.007383	0.685874	0.007383	9.71732
0.007402	0.683192	0.007402	9.59219
0.007422	0.683277	0.007422	9.52695
0.007441	0.679833	0.007441	9.31815
0.007461	0.679043	0.007461	9.10266
0.00748	0.679692	0.00748	8.91138
0.0075	0.6767	0.0075	8.60738
0.00752	0.6743	0.00752	8.19724
0.007539	0.666453	0.007539	7.74443
0.007559	0.660553	0.007559	7.33789
0.007578	0.653496	0.007578	7.00401
0.007598	0.642515	0.007598	6.72881
0.007617	0.63478	0.007617	5.96908
0.007637	0.623912	0.007637	5.45064
0.007656	0.612028	0.007656	4.89362
0.007676	0.600454	0.007676	4.18706
0.007695	0.588316	0.007695	3.6549
0.007715	0.572338	0.007715	2.89012
0.007734	0.557462	0.007734	2.37779
0.007754	0.540553	0.007754	1.66691
0.007773	0.531689	0.007773	1.11351
0.007793	0.514272	0.007793	0.348864
0.007812	0.501145	0.007812	-0.397429
0.007832	0.481696	0.007832	-1.11517
0.007852	0.461766	0.007852	-1.75901
0.007871	0.438223	0.007871	-2.38703
0.007891	0.4225	0.007891	-3.14258
0.00791	0.406071	0.00791	-3.89576
0.00793	0.386932	0.00793	-4.5611
0.007949	0.36703	0.007949	-5.18815
0.007969	0.352182	0.007969	-5.75434
0.007988	0.327679	0.007988	-6.36614
0.008008	0.303516	0.008008	-7.02581
0.008027	0.283276	0.008027	-7.44492
0.008047	0.26106	0.008047	-7.76971
0.008066	0.241582	0.008066	-7.98631
0.008086	0.222951	0.008086	-8.10685
0.008105	0.200057	0.008105	-8.17814
0.008125	0.177813	0.008125	-8.21494
0.008145	0.155992	0.008145	-8.25362
0.008164	0.128271	0.008164	-8.27983
0.008184	0.106733	0.008184	-8.30185
0.008203	0.0820328	0.008203	-8.31618
0.008223	0.0600708	0.008223	-8.33405
0.008242	0.037516	0.008242	-8.34994
0.008262	0.0141708	0.008262	-8.35979
0.008281	-0.0119972	0.008281	-8.36527
0.008301	-0.0358505	0.008301	-8.36739
0.00832	-0.0593369	0.00832	-8.3715
0.00834	-0.083783	0.00834	-8.37632
0.008359	-0.107072	0.008359	-8.37514
0.008379	-0.127227	0.008379	-8.37437
0.008398	-0.151645	0.008398	-8.37386
0.008418	-0.172167	0.008418	-8.37461
0.008437	-0.196162	0.008437	-8.37197
0.008457	-0.219874	0.008457	-8.36954
0.008477	-0.242287	0.008477	-8.36308
0.008496	-0.263487	0.008496	-8.35518
0.008516	-0.288441	0.008516	-8.34661
0.008535	-0.307157	0.008535	-8.33753
0.008555	-0.323756	0.008555	-8.33057
0.008574	-0.33612	0.008574	-8.31423
0.008594	-0.354638	0.008594	-8.3027
0.008613	-0.376205	0.008613	-8.2733
0.008633	-0.396219	0.008633	-8.25804
0.008652	-0.415584	0.008652	-8.21883
0.008672	-0.433453	0.008672	-8.19994
0.008691	-0.453608	0.008691	-8.13556
0.008711	-0.469162	0.008711	-8.07872
0.00873	-0.481244	0.00873	-7.93325
0.00875	-0.489515	0.00875	-7.76893
0.00877	-0.504674	0.00877	-7.44163
0.008789	-0.518619	0.008789	-7.12766
0.008809	-0.529317	0.008809	-6.49874
0.008828	-0.542783	0.008828	-5.95273
0.008848	-0.553961	0.008848	-5.28174
0.008867	-0.560256	0.008867	-4.69011
0.008887	-0.564039	0.008887	-4.0868
0.008906	-0.573326	0.008906	-3.41354
0.008926	-0.580948	0.008926	-2.70235
0.008945	-0.588683	0.008945	-1.88829
0.008965	-0.59557	0.008965	-1.25608
0.008984	-0.600764	0.008984	-0.51631
0.009004	-0.601103	0.009004	0.137805
0.009023	-0.602628	0.009023	0.754728
0.009043	-0.606551	0.009043	1.65083
0.009062	-0.605846	0.009062	2.22786
0.009082	-0.604999	0.009082	2.97655
0.009102	-0.603983	0.009102	3.96501
0.009121	-0.603616	0.009121	4.21541
0.009141	-0.604095	0.009141	4.67249
0.00916	-0.60322	0.00916	4.61027
0.00918	-0.598704	0.00918	6.17803
0.009199	-0.596163	0.009199	6.40508
0.009219	-0.594046	0.009219	7.57438
0.009238	-0.592183	0.009238	7.60761
0.009258	-0.587723	0.009258	7.31849
0.009277	-0.582952	0.009277	7.64373
0.009297	-0.572818	0.009297	8.20209
0.009316	-0.576318	0.009316	8.94204
0.009336	-0.5825	0.009336	8.98087
0.009355	-0.564886	0.009355	8.80713
0.009375	-0.544081	0.009375	8.71204
0.009395	-0.546311	0.009395	8.89937
0.009414	-0.55509	0.009414	9.2271
0.009434	-0.551731	0.009434	9.67438
0.009453	-0.520312	0.009453	9.60905
0.009473	-0.500411	0.009473	9.84233
0.009492	-0.510122	0.009492	9.36049
0.009512	-0.516135	0.009512	8.68874
0.009531	-0.504476	0.009531	8.08777
0.009551	-0.487313	0.009551	7.56843
0.00957	-0.476473	0.00957	7.62197
0.00959	-0.466198	0.00959	7.50696
0.009609	-0.459536	0.009609	7.46787
0.009629	-0.461512	0.009629	7.46549
0.009648	-0.455471	0.009648	7.46624
0.009668	-0.436021	0.009668	7.24282
0.009687	-0.403812	0.009687	6.81112
0.009707	-0.378322	0.009707	6.25709
0.009727	-0.358421	0.009727	5.71841
0.009746	-0.353114	0.009746	5.56478
0.009766	-0.348823	0.009766	5.007
0.009785	-0.341342	0.009785	4.6959
0.009805	-0.332732	0.009805	4.35096
0.009824	-0.315682	0.009824	3.96848
0.009844	-0.300298	0.009844	4.08339
0.009863	-0.283134	0.009863	3.65874
0.009883	-0.261285	0.009883	3.10285
0.009902	-0.239295	0.009902	2.46995
0.009922	-0.215583	0.009922	2.30156
0.009941	-0.200622	0.009941	2.36502
0.009961	-0.182922	0.009961	2.061
0.00998	-0.158674	0.00998	1.44672
0.01	-0.144023	0.01	0.641122
