frequency - Sound Pressure_29	Amplitude - Sound Pressure_29	frequency - Acceleration	Amplitude - Acceleration
0	-0.227157	0	0.0212804
1.95E-05	-0.244772	1.95E-05	0.0213138
3.91E-05	-0.257418	3.91E-05	0.0212421
5.86E-05	-0.272097	5.86E-05	0.0212323
7.81E-05	-0.288103	7.81E-05	0.0210939
9.77E-05	-0.303713	9.77E-05	0.0211693
0.000117	-0.32065	0.000117	0.0208778
0.000137	-0.333043	0.000137	0.0206889
0.000156	-0.347948	0.000156	0.0207099
0.000176	-0.363558	0.000176	0.0205728
0.000195	-0.376741	0.000195	0.0204937
0.000215	-0.392097	0.000215	0.0203468
0.000234	-0.407623	0.000234	0.0201961
0.000254	-0.420891	0.000254	0.0200145
0.000273	-0.433311	0.000273	0.0197824
0.000293	-0.446946	0.000293	0.0197997
0.000312	-0.462556	0.000312	0.0196762
0.000332	-0.473961	0.000332	0.019439
0.000352	-0.477715	0.000352	0.0195699
0.000371	-0.486749	0.000371	0.0192402
0.000391	-0.492084	0.000391	0.0192649
0.00041	-0.501823	0.00041	0.0191389
0.00043	-0.510686	0.00043	0.0191426
0.000449	-0.519691	0.000449	0.0190463
0.000469	-0.523051	0.000469	0.0189598
0.000488	-0.531689	0.000488	0.0188104
0.000508	-0.537984	0.000508	0.0186153
0.000527	-0.541174	0.000527	0.0184831
0.000547	-0.54809	0.000547	0.0185066
0.000566	-0.548315	0.000566	0.0185239
0.000586	-0.552183	0.000586	0.0183189
0.000605	-0.55749	0.000605	0.018393
0.000625	-0.559607	0.000625	0.0182312
0.000645	-0.561301	0.000645	0.018204
0.000664	-0.559663	0.000664	0.0183547
0.000684	-0.558958	0.000684	0.0182324
0.000703	-0.556304	0.000703	0.0181657
0.000723	-0.555034	0.000723	0.018372
0.000742	-0.552409	0.000742	0.0180645
0.000762	-0.54888	0.000762	0.0181015
0.000781	-0.546283	0.000781	0.0180262
0.000801	-0.540694	0.000801	0.0181312
0.00082	-0.53502	0.00082	0.0181694
0.00084	-0.531322	0.00084	0.0181583
0.000859	-0.524942	0.000859	0.0181546
0.000879	-0.518591	0.000879	0.0179941
0.000898	-0.508993	0.000898	0.0181571
0.000918	-0.501879	0.000918	0.0181559
0.000937	-0.493072	0.000937	0.0180484
0.000957	-0.482627	0.000957	0.0180447
0.000977	-0.469077	0.000977	0.0182164
0.000996	-0.464278	0.000996	0.0180879
0.001016	-0.448132	0.001016	0.0180237
0.001035	-0.438957	0.001035	0.0181275
0.001055	-0.426283	0.001055	0.018083
0.001074	-0.411067	0.001074	0.0181509
0.001094	-0.39986	0.001094	0.0182547
0.001113	-0.386649	0.001113	0.0182559
0.001133	-0.372648	0.001133	0.0181645
0.001152	-0.356924	0.001152	0.0180694
0.001172	-0.345379	0.001172	0.0180892
0.001191	-0.328498	0.001191	0.018125
0.001211	-0.316981	0.001211	0.0182448
0.00123	-0.299027	0.00123	0.0182102
0.00125	-0.284235	0.00125	0.0180756
0.00127	-0.267722	0.00127	0.0180361
0.001289	-0.25372	0.001289	0.0179385
0.001309	-0.234976	0.001309	0.0180212
0.001328	-0.218349	0.001328	0.0179002
0.001348	-0.194722	0.001348	0.0179274
0.001367	-0.184983	0.001367	0.0177347
0.001387	-0.168949	0.001387	0.0176581
0.001406	-0.150375	0.001406	0.0176433
0.001426	-0.134877	0.001426	0.0174852
0.001445	-0.115314	0.001445	0.0176038
0.001465	-0.0988571	0.001465	0.0175495
0.001484	-0.079097	0.001484	0.0175075
0.001504	-0.0646721	0.001504	0.0172802
0.001523	-0.0463234	0.001523	0.0170863
0.001543	-0.0265633	0.001543	0.0170703
0.001562	-0.0104729	0.001562	0.016927
0.001582	0.00660553	0.001582	0.0168258
0.001602	0.0263092	0.001602	0.0169591
0.001621	0.0395203	0.001621	0.0167541
0.001641	0.060466	0.001641	0.0166726
0.00166	0.0782784	0.00166	0.016438
0.00168	0.0935501	0.00168	0.0164837
0.001699	0.113649	0.001699	0.0163527
0.001719	0.132026	0.001719	0.016412
0.001738	0.143826	0.001738	0.0163774
0.001758	0.163896	0.001758	0.0161144
0.001777	0.181567	0.001777	0.0162391
0.001797	0.200791	0.001797	0.0159921
0.001816	0.215047	0.001816	0.0159403
0.001836	0.232577	0.001836	0.0160502
0.001855	0.249683	0.001855	0.0161626
0.001875	0.265971	0.001875	0.0159514
0.001895	0.283022	0.001895	0.0160847
0.001914	0.297249	0.001914	0.0161897
0.001934	0.311109	0.001934	0.0161934
0.001953	0.328216	0.001953	0.0162354
0.001973	0.344843	0.001973	0.016433
0.001992	0.358533	0.001992	0.0162058
0.002012	0.373354	0.002012	0.0163379
0.002031	0.389388	0.002031	0.0163392
0.002051	0.401808	0.002051	0.0164083
0.00207	0.415584	0.00207	0.0164874
0.00209	0.42919	0.00209	0.0166788
0.002109	0.437489	0.002109	0.0167368
0.002129	0.453185	0.002129	0.0165874
0.002148	0.465662	0.002148	0.0166701
0.002168	0.473904	0.002168	0.0167714
0.002187	0.485394	0.002187	0.016948
0.002207	0.499395	0.002207	0.0169036
0.002227	0.507497	0.002227	0.0172086
0.002246	0.514836	0.002246	0.0169567
0.002266	0.523135	0.002266	0.0170357
0.002285	0.530898	0.002285	0.0171555
0.002305	0.538972	0.002305	0.0171604
0.002324	0.544843	0.002324	0.0174321
0.002344	0.552155	0.002344	0.0175346
0.002363	0.559522	0.002363	0.0174704
0.002383	0.564124	0.002383	0.0174803
0.002402	0.562769	0.002402	0.017447
0.002422	0.569515	0.002422	0.0174321
0.002441	0.573891	0.002441	0.0173914
0.002461	0.57629	0.002461	0.017631
0.00248	0.577589	0.00248	0.0175803
0.0025	0.575641	0.0025	0.0173469
0.00252	0.576036	0.00252	0.0173963
0.002539	0.581738	0.002539	0.0172382
0.002559	0.575867	0.002559	0.0172518
0.002578	0.5731	0.002578	0.0174037
0.002598	0.571407	0.002598	0.0174111
0.002617	0.567624	0.002617	0.017358
0.002637	0.565845	0.002637	0.0172592
0.002656	0.560284	0.002656	0.0172926
0.002676	0.556191	0.002676	0.0171876
0.002695	0.550179	0.002695	0.017358
0.002715	0.541653	0.002715	0.0172012
0.002734	0.531745	0.002734	0.0173074
0.002754	0.527229	0.002754	0.0169665
0.002773	0.519946	0.002773	0.0169418
0.002793	0.510235	0.002793	0.0171184
0.002812	0.500411	0.002812	0.0169517
0.002832	0.491576	0.002832	0.0171938
0.002852	0.481554	0.002852	0.0172802
0.002871	0.467835	0.002871	0.017011
0.002891	0.457475	0.002891	0.0168986
0.00291	0.445111	0.00291	0.0169246
0.00293	0.429472	0.00293	0.0170098
0.002949	0.41883	0.002949	0.0168739
0.002969	0.408329	0.002969	0.0169542
0.002988	0.392916	0.002988	0.0170493
0.003008	0.379479	0.003008	0.0168282
0.003027	0.363417	0.003027	0.0168961
0.003047	0.350319	0.003047	0.0167714
0.003066	0.33739	0.003066	0.0168789
0.003086	0.3213	0.003086	0.0167862
0.003105	0.303346	0.003105	0.0169604
0.003125	0.289034	0.003125	0.0168023
0.003145	0.271532	0.003145	0.0167652
0.003164	0.255781	0.003164	0.0167344
0.003184	0.240565	0.003184	0.0167578
0.003203	0.223967	0.003203	0.0167924
0.003223	0.206409	0.003223	0.0168789
0.003242	0.190177	0.003242	0.0166677
0.003262	0.173099	0.003262	0.0166553
0.003281	0.151363	0.003281	0.0165108
0.003301	0.137869	0.003301	0.0164565
0.00332	0.113875	0.00332	0.0164318
0.00334	0.101624	0.00334	0.0166244
0.003359	0.0823433	0.003359	0.0165615
0.003379	0.0666763	0.003379	0.0163243
0.003398	0.0476219	0.003398	0.0163762
0.003418	0.0292732	0.003418	0.0161996
0.003437	0.0139168	0.003437	0.0162712
0.003457	-0.00485535	0.003457	0.0162181
0.003477	-0.0247566	0.003477	0.0163095
0.003496	-0.0467751	0.003496	0.0161477
0.003516	-0.0645027	0.003516	0.0160366
0.003535	-0.0809883	0.003535	0.0160255
0.003555	-0.0995064	0.003555	0.0158723
0.003574	-0.117347	0.003574	0.015834
0.003594	-0.133127	0.003594	0.0158377
0.003613	-0.151617	0.003613	0.015902
0.003633	-0.169485	0.003633	0.015902
0.003652	-0.187326	0.003652	0.0157686
0.003672	-0.20144	0.003672	0.0157007
0.003691	-0.217107	0.003691	0.015813
0.003711	-0.236359	0.003711	0.0158871
0.00373	-0.250333	0.00373	0.0159193
0.00375	-0.268089	0.00375	0.0157019
0.00377	-0.284659	0.00377	0.0157204
0.003789	-0.299394	0.003789	0.0157019
0.003809	-0.315654	0.003809	0.0156648
0.003828	-0.331293	0.003828	0.0156908
0.003848	-0.345633	0.003848	0.0160279
0.003867	-0.35955	0.003867	0.0157241
0.003887	-0.373212	0.003887	0.0157649
0.003906	-0.388738	0.003906	0.0158513
0.003926	-0.401469	0.003926	0.0158637
0.003945	-0.413805	0.003945	0.0158612
0.003965	-0.430517	0.003965	0.0158452
0.003984	-0.44257	0.003984	0.0158316
0.004004	-0.451858	0.004004	0.0155562
0.004023	-0.466283	0.004023	0.0155562
0.004043	-0.475175	0.004043	0.0155364
0.004062	-0.491096	0.004062	0.0155809
0.004082	-0.498435	0.004082	0.0154932
0.004102	-0.506367	0.004102	0.0154907
0.004121	-0.515175	0.004121	0.015545
0.004141	-0.523361	0.004141	0.0154907
0.00416	-0.529063	0.00416	0.0154018
0.00418	-0.538153	0.00418	0.0153314
0.004199	-0.543319	0.004199	0.0151659
0.004219	-0.550461	0.004219	0.0151857
0.004238	-0.553905	0.004238	0.0151079
0.004258	-0.559325	0.004258	0.0149918
0.004277	-0.566212	0.004277	0.0149559
0.004297	-0.568386	0.004297	0.0147386
0.004316	-0.570475	0.004316	0.014646
0.004336	-0.56912	0.004336	0.0147509
0.004355	-0.570108	0.004355	0.014562
0.004375	-0.572677	0.004375	0.014378
0.004395	-0.571886	0.004395	0.0143471
0.004414	-0.570334	0.004414	0.0142236
0.004434	-0.570757	0.004434	0.0141668
0.004453	-0.570023	0.004453	0.0140742
0.004473	-0.563418	0.004473	0.0139642
0.004492	-0.560228	0.004492	0.0137691
0.004512	-0.558421	0.004512	0.0136246
0.004531	-0.550291	0.004531	0.0135542
0.004551	-0.547327	0.004551	0.0133863
0.00457	-0.540835	0.00457	0.0133986
0.00459	-0.534286	0.00459	0.0132825
0.004609	-0.523728	0.004609	0.0131331
0.004629	-0.518167	0.004629	0.012933
0.004648	-0.50761	0.004648	0.0129688
0.004668	-0.499762	0.004668	0.0130059
0.004687	-0.491406	0.004687	0.0127379
0.004707	-0.479324	0.004707	0.012565
0.004727	-0.46888	0.004727	0.0125032
0.004746	-0.458604	0.004746	0.0123402
0.004766	-0.444913	0.004766	0.0122896
0.004785	-0.433086	0.004785	0.0120809
0.004805	-0.421851	0.004805	0.0122155
0.004824	-0.411886	0.004824	0.0122081
0.004844	-0.399014	0.004844	0.0119932
0.004863	-0.378378	0.004863	0.0122142
0.004883	-0.365647	0.004883	0.0120277
0.004902	-0.34998	0.004902	0.0120265
0.004922	-0.334341	0.004922	0.0117635
0.004941	-0.316049	0.004941	0.0117128
0.004961	-0.303854	0.004961	0.0119055
0.00498	-0.288441	0.00498	0.0118042
0.005	-0.271532	0.005	0.0118227
0.00502	-0.255527	0.00502	0.0119079
0.005039	-0.240678	0.005039	0.0117733
0.005059	-0.22233	0.005059	0.0118697
0.005078	-0.205731	0.005078	0.0119067
0.005098	-0.187806	0.005098	0.0120117
0.005117	-0.172026	0.005117	0.0120487
0.005137	-0.154327	0.005137	0.0121871
0.005156	-0.13372	0.005156	0.0125502
0.005176	-0.120029	0.005176	0.0126502
0.005195	-0.099704	0.005195	0.0129145
0.005215	-0.0828232	0.005215	0.0133504
0.005234	-0.0655754	0.005234	0.0137987
0.005254	-0.0462669	0.005254	0.0132381
0.005273	-0.030854	0.005273	0.0123945
0.005293	-0.00954132	0.005293	0.0117622
0.005312	0.00282288	0.005312	0.0126008
0.005332	0.0227806	0.005332	0.0151906
0.005352	0.041581	0.005352	0.0180595
0.005371	0.060099	0.005371	0.0194773
0.005391	0.0754837	0.005391	0.0195934
0.00541	0.0960625	0.00541	0.0183819
0.00543	0.114722	0.00543	0.0156858
0.005449	0.130812	0.005449	0.0109669
0.005469	0.146705	0.005469	0.00370255
0.005488	0.162174	0.005488	-0.00354324
0.005508	0.176853	0.005508	-0.00925392
0.005527	0.190601	0.005527	-0.0116943
0.005547	0.208356	0.005547	-0.0108347
0.005566	0.223741	0.005566	-0.00852773
0.005586	0.238223	0.005586	-0.00225389
0.005605	0.254793	0.005605	0.00607624
0.005625	0.270742	0.005625	0.0173766
0.005645	0.285167	0.005645	0.0271899
0.005664	0.304617	0.005664	0.0367081
0.005684	0.322626	0.005684	0.0447777
0.005703	0.33866	0.005703	0.0549628
0.005723	0.356275	0.005723	0.0641747
0.005742	0.370531	0.005742	0.0690876
0.005762	0.389952	0.005762	0.0776042
0.005781	0.407369	0.005781	0.0880598
0.005801	0.422895	0.005801	0.10042
0.00582	0.436586	0.00582	0.106661
0.00584	0.454427	0.00584	0.12294
0.005859	0.474384	0.005859	0.122258
0.005879	0.494314	0.005879	0.124248
0.005898	0.510884	0.005898	0.128105
0.005918	0.527341	0.005918	0.13693
0.005937	0.547271	0.005937	0.128757
0.005957	0.561216	0.005957	0.105202
0.005977	0.577165	0.005977	0.0788219
0.005996	0.589106	0.005996	0.0539303
0.006016	0.600793	0.006016	0.0243667
0.006035	0.61135	0.006035	-0.00232429
0.006055	0.619339	0.006055	-0.0428264
0.006074	0.61948	0.006074	-0.0870162
0.006094	0.630264	0.006094	-0.13389
0.006113	0.629755	0.006113	-0.191043
0.006133	0.631139	0.006133	-0.258981
0.006152	0.63063	0.006152	-0.334574
0.006172	0.624081	0.006172	-0.416509
0.006191	0.616573	0.006191	-0.507412
0.006211	0.596925	0.006211	-0.612592
0.00623	0.583771	0.00623	-0.706827
0.00625	0.567031	0.00625	-0.802548
0.00627	0.544674	0.00627	-0.920129
0.006289	0.514864	0.006289	-1.01495
0.006309	0.488499	0.006309	-1.12472
0.006328	0.460693	0.006328	-1.22572
0.006348	0.426988	0.006348	-1.32709
0.006367	0.391222	0.006367	-1.43668
0.006387	0.354638	0.006387	-1.52938
0.006406	0.314864	0.006406	-1.62703
0.006426	0.275767	0.006426	-1.71939
0.006445	0.234412	0.006445	-1.7974
0.006465	0.191899	0.006465	-1.86614
0.006484	0.151363	0.006484	-1.90615
0.006504	0.110826	0.006504	-1.95034
0.006523	0.0715599	0.006523	-1.97828
0.006543	0.0273537	0.006543	-1.96834
0.006562	-0.0105011	0.006562	-1.95759
0.006582	-0.0407906	0.006582	-1.9232
0.006602	-0.0747498	0.006602	-1.87175
0.006621	-0.107439	0.006621	-1.81655
0.006641	-0.13499	0.006641	-1.73093
0.00666	-0.162146	0.00666	-1.60929
0.00668	-0.184277	0.00668	-1.47225
0.006699	-0.196162	0.006699	-1.2942
0.006719	-0.211603	0.006719	-1.09275
0.006738	-0.217841	0.006738	-0.882303
0.006758	-0.220241	0.006758	-0.608685
0.006777	-0.21945	0.006777	-0.336777
0.006797	-0.20974	0.006797	0.0126452
0.006816	-0.19938	0.006816	0.359166
0.006836	-0.175329	0.006836	0.718081
0.006855	-0.150318	0.006855	1.09837
0.006875	-0.123501	0.006875	1.45262
0.006895	-0.0907837	0.006895	1.88132
0.006914	-0.0559494	0.006914	2.27949
0.006934	-0.020607	0.006934	2.75209
0.006953	0.0210022	0.006953	3.19037
0.006973	0.0681725	0.006973	3.67053
0.006992	0.11777	0.006992	4.15037
0.007012	0.168893	0.007012	4.64083
0.007031	0.22058	0.007031	5.1366
0.007051	0.273763	0.007051	5.6142
0.00707	0.331942	0.00707	6.0835
0.00709	0.385012	0.00709	6.53481
0.007109	0.439861	0.007109	6.97553
0.007129	0.493382	0.007129	7.39631
0.007148	0.543121	0.007148	7.78964
0.007168	0.591308	0.007168	8.17598
0.007187	0.635091	0.007187	8.51703
0.007207	0.681979	0.007207	8.82809
0.007227	0.722346	0.007227	9.11969
0.007246	0.756333	0.007246	9.39121
0.007266	0.793256	0.007266	9.59289
0.007285	0.819142	0.007285	9.72183
0.007305	0.848557	0.007305	9.79017
0.007324	0.867159	0.007324	9.97919
0.007344	0.883955	0.007344	9.98081
0.007363	0.88867	0.007363	9.97764
0.007383	0.895811	0.007383	9.97202
0.007402	0.895162	0.007402	9.9245
0.007422	0.890137	0.007422	9.93142
0.007441	0.880455	0.007441	9.83712
0.007461	0.869107	0.007461	9.73341
0.00748	0.854823	0.00748	9.58007
0.0075	0.835458	0.0075	9.32446
0.00752	0.816093	0.00752	9.18871
0.007539	0.790913	0.007539	8.79782
0.007559	0.757434	0.007559	8.41934
0.007578	0.718732	0.007578	8.13115
0.007598	0.685168	0.007598	7.6557
0.007617	0.642091	0.007617	7.30816
0.007637	0.590461	0.007637	6.81396
0.007656	0.543404	0.007656	6.40688
0.007676	0.498096	0.007676	5.7722
0.007695	0.440538	0.007695	5.31892
0.007715	0.383911	0.007715	4.5933
0.007734	0.322034	0.007734	4.01088
0.007754	0.264221	0.007754	3.19856
0.007773	0.188399	0.007773	2.88242
0.007793	0.129062	0.007793	1.87086
0.007812	0.0544533	0.007812	1.44527
0.007832	-0.036274	0.007832	0.668582
0.007852	-0.0911789	0.007852	0.320182
0.007871	-0.151617	0.007871	-0.441674
0.007891	-0.211716	0.007891	-1.53552
0.00791	-0.32161	0.00791	-2.12629
0.00793	-0.410474	0.00793	-3.17465
0.007949	-0.503714	0.007949	-3.38871
0.007969	-0.566382	0.007969	-4.09788
0.007988	-0.625803	0.007988	-4.31313
0.008008	-0.639918	0.008008	-5.15465
0.008027	-0.678902	0.008027	-5.9411
0.008047	-0.751619	0.008047	-6.7945
0.008066	-0.833369	0.008066	-7.42535
0.008086	-0.929545	0.008086	-7.88917
0.008105	-1.05429	0.008105	-8.01827
0.008125	-1.17773	0.008125	-8.15536
0.008145	-1.29403	0.008145	-8.15643
0.008164	-1.38327	0.008164	-8.20553
0.008184	-1.44641	0.008184	-8.21276
0.008203	-1.50744	0.008203	-8.23338
0.008223	-1.54998	0.008223	-8.2485
0.008242	-1.58869	0.008242	-8.2603
0.008262	-1.61835	0.008262	-8.27117
0.008281	-1.63399	0.008281	-8.28855
0.008301	-1.65776	0.008301	-8.29178
0.00832	-1.6743	0.00832	-8.30983
0.00834	-1.68678	0.00834	-8.30655
0.008359	-1.68252	0.008359	-8.32411
0.008379	-1.69373	0.008379	-8.32421
0.008398	-1.70637	0.008398	-8.33169
0.008418	-1.71255	0.008418	-8.32915
0.008437	-1.69548	0.008437	-8.33681
0.008457	-1.69878	0.008457	-8.33142
0.008477	-1.69773	0.008477	-8.33507
0.008496	-1.68139	0.008496	-8.32977
0.008516	-1.66524	0.008516	-8.33471
0.008535	-1.65847	0.008535	-8.3266
0.008555	-1.65564	0.008555	-8.32801
0.008574	-1.63809	0.008574	-8.31397
0.008594	-1.61562	0.008594	-8.3126
0.008613	-1.58798	0.008613	-8.28766
0.008633	-1.54471	0.008633	-8.2929
0.008652	-1.48286	0.008652	-8.26574
0.008672	-1.44489	0.008672	-8.26634
0.008691	-1.42448	0.008691	-8.21837
0.008711	-1.38002	0.008711	-8.20211
0.00873	-1.31374	0.00873	-8.1182
0.00875	-1.22993	0.00875	-8.11834
0.00877	-1.14863	0.00877	-7.94952
0.008789	-1.06487	0.008789	-7.92029
0.008809	-0.979199	0.008809	-7.09425
0.008828	-0.90891	0.008828	-7.28032
0.008848	-0.844463	0.008848	-7.19123
0.008867	-0.76531	0.008867	-6.76775
0.008887	-0.671393	0.008887	-5.63764
0.008906	-0.585126	0.008906	-4.40374
0.008926	-0.4896	0.008926	-4.53142
0.008945	-0.365421	0.008945	-3.70991
0.008965	-0.244997	0.008965	-2.98376
0.008984	-0.165985	0.008984	-3.06313
0.009004	-0.110233	0.009004	-2.46501
0.009023	-0.0535782	0.009023	-1.97167
0.009043	-0.00993652	0.009043	-1.03156
0.009062	0.0494003	0.009062	-0.0132492
0.009082	0.151504	0.009082	0.437063
0.009102	0.280481	0.009102	1.52143
0.009121	0.406692	0.009121	1.94628
0.009141	0.506734	0.009141	2.80468
0.00916	0.609657	0.00916	3.68847
0.00918	0.717744	0.00918	4.15316
0.009199	0.798027	0.009199	4.7754
0.009219	0.878902	0.009219	5.45208
0.009238	0.971239	0.009238	6.15671
0.009258	1.03958	0.009258	6.72689
0.009277	1.08517	0.009277	6.95302
0.009297	1.10623	0.009297	7.41396
0.009316	1.12701	0.009316	7.67096
0.009336	1.15667	0.009336	8.19397
0.009355	1.19379	0.009355	8.36968
0.009375	1.22614	0.009375	8.63471
0.009395	1.2448	0.009395	8.97569
0.009414	1.27854	0.009414	9.14211
0.009434	1.32144	0.009434	9.17494
0.009453	1.32861	0.009453	9.04249
0.009473	1.32788	0.009473	9.12186
0.009492	1.35718	0.009492	9.16569
0.009512	1.38002	0.009512	9.32765
0.009531	1.39179	0.009531	9.3583
0.009551	1.41511	0.009551	9.21097
0.00957	1.43817	0.00957	8.67892
0.00959	1.38956	0.00959	8.80838
0.009609	1.349	0.009609	8.16011
0.009629	1.34335	0.009629	8.45856
0.009648	1.31769	0.009648	8.2283
0.009668	1.28994	0.009668	8.66114
0.009687	1.30956	0.009687	8.07326
0.009707	1.34185	0.009707	7.236
0.009727	1.26518	0.009727	7.14717
0.009746	1.20046	0.009746	6.57084
0.009766	1.1696	0.009766	6.8722
0.009785	1.17172	0.009785	7.02672
0.009805	1.17824	0.009805	7.07521
0.009824	1.23317	0.009824	6.38109
0.009844	1.2454	0.009844	5.69107
0.009863	1.20746	0.009863	4.90012
0.009883	1.15984	0.009883	4.20185
0.009902	1.09053	0.009902	3.30932
0.009922	0.976348	0.009922	2.71922
0.009941	0.84548	0.009941	1.88712
0.009961	0.744138	0.009961	1.76251
0.00998	0.674611	0.00998	1.76498
0.01	0.638789	0.01	1.62737
0.01002	0.618097	0.01002	1.75373
0.010039	0.618492	0.010039	1.49971
0.010059	0.614117	0.010059	1.39645
0.010078	0.60881	0.010078	1.04589
0.010098	0.602571	0.010098	0.478187
0.010117	0.570616	0.010117	0.067965
0.010137	0.516276	0.010137	-0.424127
0.010156	0.483672	0.010156	-0.514264
0.010176	0.470771	0.010176	-1.23551
0.010195	0.4166	0.010195	-1.73684
0.010215	0.358985	0.010215	-2.2384
0.010234	0.325054	0.010234	-2.37134
0.010254	0.305943	0.010254	-3.00076
0.010273	0.259902	0.010273	-3.26644
0.010293	0.211236	0.010293	-3.56858
0.010312	0.189415	0.010312	-4.04538
0.010332	0.163642	0.010332	-4.48433
0.010352	0.101765	0.010352	-4.89502
