frequency - Sound Pressure_29	Amplitude - Sound Pressure_29	frequency - Acceleration	Amplitude - Acceleration
0	-1.86761	0	-0.00254165
1.95E-05	-1.87128	1.95E-05	-0.00272813
3.91E-05	-1.87761	3.91E-05	-0.00303071
5.86E-05	-1.88094	5.86E-05	-0.00311716
7.81E-05	-1.88407	7.81E-05	-0.00315792
9.77E-05	-1.8867	9.77E-05	-0.00340492
0.000117	-1.88531	0.000117	-0.00349137
0.000137	-1.88131	0.000137	-0.00350866
0.000156	-1.87476	0.000156	-0.00377913
0.000176	-1.86654	0.000176	-0.0039051
0.000195	-1.86011	0.000195	-0.00384829
0.000215	-1.84791	0.000215	-0.00384088
0.000234	-1.83803	0.000234	-0.00382729
0.000254	-1.82389	0.000254	-0.00389151
0.000273	-1.81556	0.000273	-0.00399896
0.000293	-1.80198	0.000293	-0.0040076
0.000312	-1.78476	0.000312	-0.00416445
0.000332	-1.77147	0.000332	-0.00427436
0.000352	-1.7593	0.000352	-0.00411134
0.000371	-1.74584	0.000371	-0.00411752
0.000391	-1.73313	0.000391	-0.00399525
0.00041	-1.71529	0.00041	-0.00404959
0.00043	-1.69878	0.00043	-0.00406194
0.000449	-1.68382	0.000449	-0.00414592
0.000469	-1.66349	0.000469	-0.00440651
0.000488	-1.64689	0.000488	-0.00428177
0.000508	-1.62629	0.000508	-0.00401131
0.000527	-1.60128	0.000527	-0.00383594
0.000547	-1.5825	0.000547	-0.00401378
0.000566	-1.55967	0.000566	-0.00412246
0.000586	-1.53536	0.000586	-0.00421879
0.000605	-1.50823	0.000605	-0.00409158
0.000625	-1.48427	0.000625	-0.00411134
0.000645	-1.45734	0.000645	-0.00396932
0.000664	-1.42987	0.000664	-0.00413604
0.000684	-1.40376	0.000684	-0.00393474
0.000703	-1.37347	0.000703	-0.00395079
0.000723	-1.34349	0.000723	-0.00398043
0.000742	-1.31219	0.000742	-0.003831
0.000762	-1.27667	0.000762	-0.0037816
0.000781	-1.2428	0.000781	-0.00381371
0.000801	-1.2074	0.000801	-0.00388781
0.00082	-1.16844	0.00082	-0.00377666
0.00084	-1.13065	0.00084	-0.00371861
0.000859	-1.09048	0.000859	-0.0037606
0.000879	-1.04856	0.000879	-0.00385076
0.000898	-1.00367	0.000898	-0.00389028
0.000918	-0.960032	0.000918	-0.00409776
0.000937	-0.920258	0.000937	-0.00419409
0.000957	-0.876842	0.000957	-0.0041805
0.000977	-0.831393	0.000977	-0.00415951
0.000996	-0.792325	0.000996	-0.00398661
0.001016	-0.748683	0.001016	-0.0038804
0.001035	-0.705437	0.001035	-0.00391498
0.001055	-0.661061	0.001055	-0.00425213
0.001074	-0.615387	0.001074	-0.0041805
0.001094	-0.565789	0.001094	-0.0042262
0.001113	-0.520256	0.001113	-0.00426819
0.001133	-0.473425	0.001133	-0.00409899
0.001152	-0.425549	0.001152	-0.00433241
0.001172	-0.379253	0.001172	-0.00426078
0.001191	-0.32895	0.001191	-0.00439416
0.001211	-0.28209	0.001211	-0.00465475
0.00123	-0.232774	0.00123	-0.00459794
0.00125	-0.185124	0.00125	-0.00446455
0.00127	-0.134425	0.00127	-0.00447073
0.001289	-0.0835289	0.001289	-0.0044238
0.001309	-0.0361328	0.001309	-0.00421261
0.001328	0.0119125	0.001328	-0.00456459
0.001348	0.0619904	0.001348	-0.004572
0.001367	0.109358	0.001367	-0.00453125
0.001387	0.157347	0.001387	-0.00440651
0.001406	0.204517	0.001406	-0.00465722
0.001426	0.250333	0.001426	-0.00459176
0.001445	0.300749	0.001445	-0.00448061
0.001465	0.344363	0.001465	-0.00453866
0.001484	0.391081	0.001484	-0.00456583
0.001504	0.441074	0.001504	-0.00445961
0.001523	0.48864	0.001523	-0.00448184
0.001543	0.532423	0.001543	-0.0044522
0.001562	0.576544	0.001562	-0.0043287
0.001582	0.619508	0.001582	-0.0040076
0.001602	0.662303	0.001602	-0.00391992
0.001621	0.708372	0.001621	-0.00369391
0.001641	0.748994	0.001641	-0.00357782
0.00166	0.793877	0.00166	-0.00364451
0.00168	0.834583	0.00168	-0.00344814
0.001699	0.875769	0.001699	-0.00341727
0.001719	0.917491	0.001719	-0.00318632
0.001738	0.95783	0.001738	-0.00315298
0.001758	0.995713	0.001758	-0.00278371
0.001777	1.03151	0.001777	-0.00309864
0.001797	1.07097	0.001797	-0.00272443
0.001816	1.10931	0.001816	-0.00269602
0.001836	1.14473	0.001836	-0.00256635
0.001855	1.18075	0.001855	-0.00235269
0.001875	1.22143	0.001875	-0.0019402
0.001895	1.25751	0.001895	-0.00177841
0.001914	1.29432	0.001914	-0.00167467
0.001934	1.33217	0.001934	-0.00153759
0.001953	1.36799	0.001953	-0.00151412
0.001973	1.40232	0.001973	-0.0011325
0.001992	1.43806	0.001992	-0.00117573
0.002012	1.47148	0.002012	-0.000860801
0.002031	1.50547	0.002031	-0.000713835
0.002051	1.53395	0.002051	-0.0006879
0.00207	1.56249	0.00207	-0.000469303
0.00209	1.59346	0.00209	-0.000379148
0.002109	1.62143	0.002109	-0.000432253
0.002129	1.65237	0.002129	-6.79E-05
0.002148	1.68029	0.002148	-4.20E-05
0.002168	1.7088	0.002168	0.000100036
0.002187	1.73934	0.002187	0.000485358
0.002207	1.76554	0.002207	0.000579219
0.002227	1.78984	0.002227	0.00068049
0.002246	1.81785	0.002246	0.00077435
0.002266	1.84136	0.002266	0.000981832
0.002285	1.86437	0.002285	0.000912671
0.002305	1.88678	0.002305	0.00104235
0.002324	1.90999	0.002324	0.0013017
0.002344	1.92461	0.002344	0.0013548
0.002363	1.93807	0.002363	0.00157711
0.002383	1.95391	0.002383	0.00153882
0.002402	1.96506	0.002402	0.00145607
0.002422	1.97683	0.002422	0.00128688
0.002441	1.98677	0.002441	0.00164997
0.002461	1.99357	0.002461	0.00171049
0.00248	2.00167	0.00248	0.00191797
0.0025	2.00701	0.0025	0.00208222
0.00252	2.01285	0.00252	0.00214768
0.002539	2.01551	0.002539	0.00211063
0.002559	2.01728	0.002559	0.00200318
0.002578	2.01737	0.002578	0.00199454
0.002598	2.00938	0.002598	0.0021378
0.002617	2.00898	0.002617	0.0021662
0.002637	2.00156	0.002637	0.00229465
0.002656	1.99764	0.002656	0.00227118
0.002676	1.98846	0.002676	0.00225266
0.002695	1.98236	0.002695	0.00234034
0.002715	1.97189	0.002715	0.00230823
0.002734	1.96187	0.002734	0.00238233
0.002754	1.95131	0.002754	0.00263798
0.002773	1.93734	0.002773	0.0024305
0.002793	1.92715	0.002793	0.002554
0.002812	1.91193	0.002812	0.00266638
0.002832	1.89528	0.002832	0.00257623
0.002852	1.87606	0.002852	0.0027059
0.002871	1.85875	0.002871	0.00259722
0.002891	1.8369	0.002891	0.00259599
0.00291	1.81522	0.00291	0.00243297
0.00293	1.79487	0.00293	0.00262192
0.002949	1.76975	0.002949	0.00251077
0.002969	1.74332	0.002969	0.00278988
0.002988	1.71899	0.002988	0.00261081
0.003008	1.69138	0.003008	0.00267009
0.003027	1.66279	0.003027	0.00249595
0.003047	1.6319	0.003047	0.00239221
0.003066	1.60057	0.003066	0.00243173
0.003086	1.56763	0.003086	0.00249225
0.003105	1.53914	0.003105	0.00257376
0.003125	1.50679	0.003125	0.00266515
0.003145	1.473	0.003145	0.00261081
0.003164	1.4404	0.003164	0.00239221
0.003184	1.40607	0.003184	0.00255523
0.003203	1.37152	0.003203	0.00249719
0.003223	1.34041	0.003223	0.00259599
0.003242	1.30301	0.003242	0.00277136
0.003262	1.26773	0.003262	0.00296402
0.003281	1.22894	0.003281	0.00286151
0.003301	1.19382	0.003301	0.00279359
0.00332	1.15326	0.00332	0.00300107
0.00334	1.11526	0.00334	0.00296402
0.003359	1.07893	0.003359	0.00298501
0.003379	1.04271	0.003379	0.00324437
0.003398	1.00523	0.003398	0.00331847
0.003418	0.963278	0.003418	0.00326907
0.003437	0.922855	0.003437	0.00337157
0.003457	0.880568	0.003457	0.00348766
0.003477	0.837773	0.003477	0.00349013
0.003496	0.794978	0.003496	0.00343209
0.003516	0.752494	0.003516	0.00354818
0.003535	0.709586	0.003535	0.00363586
0.003555	0.668034	0.003555	0.00365315
0.003574	0.622331	0.003574	0.00366797
0.003594	0.57773	0.003594	0.00364698
0.003613	0.536346	0.003613	0.00385693
0.003633	0.490221	0.003633	0.00403107
0.003652	0.44322	0.003652	0.00377419
0.003672	0.397602	0.003672	0.00377913
0.003691	0.351928	0.003691	0.00379765
0.003711	0.303262	0.003711	0.00397179
0.00373	0.252986	0.00373	0.00386434
0.00375	0.201723	0.00375	0.00378901
0.00377	0.151447	0.00377	0.00380506
0.003789	0.103995	0.003789	0.00346173
0.003809	0.048497	0.003809	0.0035136
0.003828	0.00158081	0.003828	0.00355559
0.003848	-0.0501343	0.003848	0.00353706
0.003867	-0.100184	0.003867	0.00340615
0.003887	-0.147552	0.003887	0.00344938
0.003906	-0.198363	0.003906	0.00297637
0.003926	-0.247623	0.003926	0.00292944
0.003945	-0.298801	0.003945	0.00280347
0.003965	-0.343431	0.003965	0.0024836
0.003984	-0.394412	0.003984	0.00249101
0.004004	-0.442034	0.004004	0.00219337
0.004023	-0.491322	0.004023	0.00190685
0.004043	-0.538548	0.004043	0.0015981
0.004062	-0.58171	0.004062	0.00128935
0.004082	-0.627215	0.004082	0.00109916
0.004102	-0.670885	0.004102	0.000965776
0.004121	-0.714131	0.004121	0.000785465
0.004141	-0.753228	0.004141	0.000629854
0.00416	-0.797265	0.00416	0.000265527
0.00418	-0.832805	0.00418	0.000195131
0.004199	-0.871083	0.004199	-0.000160551
0.004219	-0.908176	0.004219	-0.000314927
0.004238	-0.942163	0.004238	-0.000608859
0.004258	-0.975473	0.004258	-0.000844746
0.004277	-1.00915	0.004277	-0.00108804
0.004297	-1.0465	0.004297	-0.00120907
0.004316	-1.07955	0.004316	-0.00138815
0.004336	-1.11292	0.004336	-0.00145484
0.004355	-1.14657	0.004355	-0.00159193
0.004375	-1.17855	0.004375	-0.00169443
0.004395	-1.21344	0.004395	-0.0020143
0.004414	-1.24537	0.004414	-0.00205258
0.004434	-1.27586	0.004434	-0.00219461
0.004453	-1.30869	0.004453	-0.00237492
0.004473	-1.33875	0.004473	-0.00253918
0.004492	-1.36915	0.004492	-0.00259846
0.004512	-1.3949	0.004512	-0.00274295
0.004531	-1.42233	0.004531	-0.00276765
0.004551	-1.45121	0.004551	-0.00282199
0.00457	-1.47444	0.00457	-0.0028504
0.00459	-1.50301	0.00459	-0.00267997
0.004609	-1.53045	0.004609	-0.00277259
0.004629	-1.55038	0.004629	-0.00276024
0.004648	-1.57793	0.004648	-0.00269479
0.004668	-1.6019	0.004668	-0.00262069
0.004687	-1.62211	0.004687	-0.00280717
0.004707	-1.64125	0.004707	-0.00297143
0.004727	-1.66011	0.004727	-0.00289239
0.004746	-1.6791	0.004746	-0.00278988
0.004766	-1.69517	0.004766	-0.00284916
0.004785	-1.71261	0.004785	-0.00294673
0.004805	-1.72989	0.004805	-0.00289609
0.004824	-1.74824	0.004824	-0.00286398
0.004844	-1.76466	0.004844	-0.00273431
0.004863	-1.78067	0.004863	-0.00265033
0.004883	-1.79258	0.004883	-0.00272566
0.004902	-1.80774	0.004902	-0.00261081
0.004922	-1.81881	0.004922	-0.00275777
0.004941	-1.82846	0.004941	-0.00268738
0.004961	-1.83707	0.004961	-0.00263304
0.00498	-1.84777	0.00498	-0.00261081
0.005	-1.85867	0.005	-0.00261328
0.00502	-1.86428	0.00502	-0.00259352
0.005039	-1.86911	0.005039	-0.00296402
0.005059	-1.87371	0.005059	-0.00282446
0.005078	-1.87668	0.005078	-0.00294673
0.005098	-1.88294	0.005098	-0.00297143
0.005117	-1.88337	0.005117	-0.00277877
0.005137	-1.88212	0.005137	-0.00284299
0.005156	-1.88356	0.005156	-0.00279359
0.005176	-1.87368	0.005176	-0.00298254
0.005195	-1.86798	0.005195	-0.00305912
0.005215	-1.85867	0.005215	-0.00304677
0.005234	-1.85099	0.005234	-0.00319744
0.005254	-1.84023	0.005254	-0.00297266
0.005273	-1.82843	0.005273	-0.00270467
0.005293	-1.81807	0.005293	-0.00276395
0.005312	-1.80359	0.005312	-0.00267009
0.005332	-1.7903	0.005332	-0.00239715
0.005352	-1.77813	0.005352	-0.00211804
0.005371	-1.76195	0.005371	-0.00265033
0.005391	-1.75049	0.005391	-0.0037853
0.00541	-1.73666	0.00541	-0.00483753
0.00543	-1.72176	0.00543	-0.0039298
0.005449	-1.70829	0.005449	-0.00154747
0.005469	-1.69006	0.005469	0.00122389
0.005488	-1.67301	0.005488	0.00250089
0.005508	-1.65666	0.005508	0.00242062
0.005527	-1.63185	0.005527	0.0011078
0.005547	-1.6135	0.005547	-0.00161539
0.005566	-1.59094	0.005566	-0.00658012
0.005586	-1.56898	0.005586	-0.0139457
0.005605	-1.54567	0.005605	-0.0216966
0.005625	-1.52209	0.005625	-0.0273567
0.005645	-1.50109	0.005645	-0.0299527
0.005664	-1.47289	0.005664	-0.0294932
0.005684	-1.4476	0.005684	-0.0268997
0.005703	-1.42183	0.005703	-0.0203517
0.005723	-1.39329	0.005723	-0.011057
0.005742	-1.36613	0.005742	-0.000524879
0.005762	-1.33265	0.005762	0.0111114
0.005781	-1.29841	0.005781	0.0221635
0.005801	-1.26383	0.005801	0.031326
0.00582	-1.22693	0.00582	0.0369823
0.00584	-1.18764	0.00584	0.0470476
0.005859	-1.14626	0.005859	0.0539909
0.005879	-1.09999	0.005879	0.0646897
0.005898	-1.06039	0.005898	0.0729692
0.005918	-1.01254	0.005918	0.0912844
0.005937	-0.964944	0.005937	0.095907
0.005957	-0.918225	0.005957	0.10474
0.005977	-0.870377	0.005977	0.111274
0.005996	-0.822643	0.005996	0.124694
0.006016	-0.773045	0.006016	0.12247
0.006035	-0.720539	0.006035	0.113985
0.006055	-0.671675	0.006055	0.100729
0.006074	-0.622162	0.006074	0.0856873
0.006094	-0.568443	0.006094	0.0712118
0.006113	-0.517348	0.006113	0.0504711
0.006133	-0.468513	0.006133	0.0166615
0.006152	-0.420411	0.006152	-0.0120722
0.006172	-0.367538	0.006172	-0.0474638
0.006191	-0.317122	0.006191	-0.0944769
0.006211	-0.270516	0.006211	-0.153425
0.00623	-0.223402	0.00623	-0.214491
0.00625	-0.17945	0.00625	-0.28615
0.00627	-0.140382	0.00627	-0.364894
0.006289	-0.0974739	0.006289	-0.446951
0.006309	-0.0606071	0.006309	-0.533724
0.006328	-0.026281	0.006328	-0.629539
0.006348	0.00711365	0.006348	-0.723565
0.006367	0.0377701	0.006367	-0.823716
0.006387	0.0641357	0.006387	-0.92067
0.006406	0.0912918	0.006406	-1.03104
0.006426	0.113113	0.006426	-1.13234
0.006445	0.129655	0.006445	-1.24252
0.006465	0.147834	0.006465	-1.34412
0.006484	0.164404	0.006484	-1.44859
0.006504	0.18233	0.006504	-1.54682
0.006523	0.197291	0.006523	-1.64285
0.006543	0.210361	0.006543	-1.72627
0.006562	0.22168	0.006562	-1.80204
0.006582	0.236472	0.006582	-1.87402
0.006602	0.246155	0.006602	-1.92867
0.006621	0.258632	0.006621	-1.96328
0.006641	0.274863	0.006641	-1.96739
0.00666	0.285816	0.00666	-1.98087
0.00668	0.305322	0.00668	-1.98012
0.006699	0.325534	0.006699	-1.96726
0.006719	0.345322	0.006719	-1.90032
0.006738	0.366833	0.006738	-1.82185
0.006758	0.3954	0.006758	-1.74014
0.006777	0.423657	0.006777	-1.61604
0.006797	0.455189	0.006797	-1.49276
0.006816	0.490136	0.006816	-1.33617
0.006836	0.529713	0.006836	-1.11542
0.006855	0.575274	0.006855	-0.854669
0.006875	0.625239	0.006875	-0.587719
0.006895	0.686298	0.006895	-0.297027
0.006914	0.745296	0.006914	-0.00800038
0.006934	0.810617	0.006934	0.31973
0.006953	0.878451	0.006953	0.676289
0.006973	0.956447	0.006973	1.03828
0.006992	1.03004	0.006992	1.44322
0.007012	1.10962	0.007012	1.8368
0.007031	1.1947	0.007031	2.29412
0.007051	1.28226	0.007051	2.73501
0.00707	1.37584	0.00707	3.21849
0.00709	1.46821	0.00709	3.67839
0.007109	1.56224	0.007109	4.15326
0.007129	1.65948	0.007129	4.64065
0.007148	1.75589	0.007148	5.151
0.007168	1.85593	0.007168	5.63657
0.007187	1.95992	0.007187	6.10985
0.007207	2.05974	0.007207	6.58333
0.007227	2.16091	0.007227	7.00294
0.007246	2.25816	0.007246	7.39883
0.007266	2.34872	0.007266	7.75453
0.007285	2.43321	0.007285	8.13126
0.007305	2.51919	0.007305	8.47149
0.007324	2.59894	0.007324	8.79488
0.007344	2.67213	0.007344	9.08813
0.007363	2.74482	0.007363	9.33744
0.007383	2.8069	0.007383	9.54677
0.007402	2.86547	0.007402	9.6705
0.007422	2.9206	0.007422	9.79382
0.007441	2.97063	0.007441	9.91723
0.007461	3.00899	0.007461	9.94942
0.00748	3.04636	0.00748	9.96662
0.0075	3.06864	0.0075	9.96998
0.00752	3.09562	0.00752	9.9562
0.007539	3.11674	0.007539	9.92303
0.007559	3.12509	0.007559	9.82896
0.007578	3.12865	0.007578	9.72649
0.007598	3.12741	0.007598	9.57847
0.007617	3.11914	0.007617	9.35595
0.007637	3.11137	0.007637	9.09892
0.007656	3.09365	0.007656	8.93043
0.007676	3.07355	0.007676	8.52546
0.007695	3.05063	0.007695	8.10576
0.007715	3.0137	0.007715	7.63477
0.007734	2.97446	0.007734	7.20873
0.007754	2.9282	0.007754	6.67159
0.007773	2.88546	0.007773	6.36066
0.007793	2.82093	0.007793	6.03225
0.007812	2.78595	0.007812	5.17907
0.007832	2.73311	0.007832	4.29476
0.007852	2.61139	0.007852	3.82687
0.007871	2.53887	0.007871	3.13482
0.007891	2.5042	0.007891	2.80356
0.00791	2.4253	0.00791	2.32657
0.00793	2.38443	0.00793	1.63855
0.007949	2.32179	0.007949	0.500104
0.007969	2.18262	0.007969	0.106941
0.007988	2.08687	0.007988	-0.840991
0.008008	1.99016	0.008008	-1.37412
0.008027	1.86934	0.008027	-2.06115
0.008047	1.81045	0.008047	-2.66348
0.008066	1.71148	0.008066	-3.45124
0.008086	1.61864	0.008086	-4.60982
0.008105	1.49449	0.008105	-5.14994
0.008125	1.36065	0.008125	-6.15696
0.008145	1.2334	0.008145	-6.20737
0.008164	1.17293	0.008164	-6.58907
0.008184	1.09968	0.008184	-6.5669
0.008203	1.06267	0.008203	-7.52066
0.008223	0.994556	0.008223	-7.65344
0.008242	0.897166	0.008242	-8.11851
0.008262	0.787272	0.008262	-8.15505
0.008281	0.6496	0.008281	-8.2631
0.008301	0.490955	0.008301	-8.27205
0.00832	0.310827	0.00832	-8.32968
0.00834	0.151701	0.00834	-8.30291
0.008359	0.0348061	0.008359	-8.34307
0.008379	-0.0617645	0.008379	-8.3162
0.008398	-0.144531	0.008398	-8.34481
0.008418	-0.189923	0.008418	-8.32585
0.008437	-0.246155	0.008437	-8.33305
0.008457	-0.267891	0.008457	-8.34133
0.008477	-0.295386	0.008477	-8.3417
0.008496	-0.360199	0.008496	-8.34655
0.008516	-0.390009	0.008516	-8.35975
0.008535	-0.437772	0.008535	-8.34213
0.008555	-0.477913	0.008555	-8.36211
0.008574	-0.506791	0.008574	-8.35549
0.008594	-0.551251	0.008594	-8.35624
0.008613	-0.604773	0.008613	-8.35399
0.008633	-0.622642	0.008633	-8.34477
0.008652	-0.640708	0.008652	-8.34388
0.008672	-0.658379	0.008672	-8.33857
0.008691	-0.682204	0.008691	-8.33972
0.008711	-0.711816	0.008711	-8.33322
0.00873	-0.748232	0.00873	-8.33553
0.00875	-0.79591	0.00875	-8.31405
0.00877	-0.84054	0.00877	-8.32417
0.008789	-0.878281	0.008789	-8.26117
0.008809	-0.888105	0.008809	-8.25492
0.008828	-0.861203	0.008828	-8.20449
0.008848	-0.866905	0.008848	-8.18658
0.008867	-0.898606	0.008867	-8.11987
0.008887	-0.903603	0.008887	-8.0982
0.008906	-0.921528	0.008906	-7.81521
0.008926	-0.926694	0.008926	-7.76091
0.008945	-0.89982	0.008945	-7.35683
0.008965	-0.906849	0.008965	-6.82213
0.008984	-0.901994	0.008984	-6.35518
0.009004	-0.872833	0.009004	-5.63786
0.009023	-0.849008	0.009023	-4.77889
0.009043	-0.840116	0.009043	-3.42292
0.009062	-0.810222	0.009062	-4.17349
0.009082	-0.771294	0.009082	-3.38857
0.009102	-0.736121	0.009102	-2.80258
0.009121	-0.708739	0.009121	-0.976359
0.009141	-0.690108	0.009141	-1.25426
0.00916	-0.65471	0.00916	-0.676578
0.00918	-0.600934	0.00918	-0.273405
0.009199	-0.576572	0.009199	0.137648
0.009219	-0.621089	0.009219	0.28177
0.009238	-0.64068	0.009238	0.978992
0.009258	-0.639833	0.009258	1.83688
0.009277	-0.645309	0.009277	2.87176
0.009297	-0.617222	0.009297	3.56564
0.009316	-0.540496	0.009316	4.00335
0.009336	-0.476304	0.009336	4.68045
0.009355	-0.43509	0.009355	5.31342
0.009375	-0.405647	0.009375	6.12055
0.009395	-0.375188	0.009395	6.60431
0.009414	-0.360876	0.009414	6.79552
0.009434	-0.355344	0.009434	7.55476
0.009453	-0.326804	0.009453	7.82181
0.009473	-0.310996	0.009473	8.50484
0.009492	-0.353876	0.009492	8.32121
0.009512	-0.411265	0.009512	8.62056
0.009531	-0.456685	0.009531	9.10997
0.009551	-0.461343	0.009551	9.36919
0.00957	-0.467751	0.00957	9.55296
0.00959	-0.464702	0.00959	9.23169
0.009609	-0.510178	0.009609	9.51533
0.009629	-0.552155	0.009629	9.47264
0.009648	-0.567596	0.009648	9.07402
0.009668	-0.612733	0.009668	9.04968
0.009687	-0.698521	0.009687	8.95951
0.009707	-0.704816	0.009707	8.83622
0.009727	-0.703799	0.009727	9.04992
0.009746	-0.758676	0.009746	8.83811
0.009766	-0.747836	0.009766	8.14269
0.009785	-0.779368	0.009785	7.90349
0.009805	-0.915685	0.009805	7.17067
0.009824	-1.00288	0.009824	7.38525
0.009844	-1.06236	0.009844	7.97267
0.009863	-1.03255	0.009863	7.10023
0.009883	-1.08077	0.009883	7.18979
0.009902	-1.1676	0.009902	6.41337
0.009922	-1.16907	0.009922	7.30687
0.009941	-1.11467	0.009941	4.72985
0.009961	-1.2706	0.009961	4.7452
0.00998	-1.44893	0.00998	3.85721
0.01	-1.48523	0.01	5.27255
0.01002	-1.45742	0.01002	5.13918
0.010039	-1.41361	0.010039	5.2947
0.010059	-1.40133	0.010059	4.13578
0.010078	-1.37677	0.010078	3.50916
0.010098	-1.41062	0.010098	2.51293
0.010117	-1.45999	0.010117	1.59839
0.010137	-1.59481	0.010137	0.0457608
0.010156	-1.75484	0.010156	-0.201043
0.010176	-1.91377	0.010176	-0.337816
0.010195	-1.98022	0.010195	-0.695754
0.010215	-2.04554	0.010215	-0.150623
