t,Theta,Theta,Theta
0.033,10.15570758,10.06648134,9.653171882
0.067,9.882074126,9.876860227,9.40359195
0.100,9.346632909,9.37007712,8.920267524
0.133,8.557816981,8.634146153,8.181012831
0.167,7.550125809,7.676759265,7.205912741
0.200,6.376934413,6.490303764,6.042118521
0.233,5.00903924,5.146120962,4.698949281
0.267,3.497293435,3.646916782,3.226955471
0.300,1.91336687,2.049518879,1.634568583
0.333,0.323340628,0.3852904,0.006988285
0.367,-1.299879987,-1.26111875,-1.609261662
0.400,-2.875761836,-2.889072213,-3.191224546
0.433,-4.34601205,-4.428237148,-4.694745025
0.467,-5.689576625,-5.853147471,-6.079861902
0.500,-6.863458979,-7.11978887,-7.304901748
0.533,-7.864471738,-8.203606833,-8.358444025
0.567,-8.648426352,-9.028701863,-9.185164958
0.600,-9.177272082,-9.660776328,-9.772670157
0.633,-9.442892148,-10.03822328,-10.13572657
0.667,-9.468334333,-10.13216955,-10.22717085
0.700,-9.213052848,-9.971161766,-10.06233818
0.733,-8.739964173,-9.563810168,-9.631588872
0.767,-8.01303566,-8.888804494,-8.947407955
0.800,-7.072052151,-7.996830768,-8.030974807
0.833,-5.913222225,-6.894823982,-6.905956312
0.867,-4.603022397,-5.591948275,-5.605986226
0.900,-3.155383573,-4.161549517,-4.164726954
0.933,-1.618553884,-2.639744014,-2.640498708
0.967,-0.036327062,-1.030343133,-1.036400562
1.000,1.557511766,0.577705854,0.562425457
1.033,3.116406783,2.195053181,2.170700963
1.067,4.611910765,3.71752457,3.687233582
1.100,5.976752666,5.144021667,5.096678465
1.133,7.179561738,6.421051859,6.369471629
1.167,8.223983671,7.551517122,7.446289269
1.200,9.046840602,8.434990961,8.339263704
1.233,9.644180075,9.099428166,8.97992544
1.267,9.951425414,9.516356515,9.359825395
1.300,10.00935893,9.652615392,9.47663709
1.333,9.84479529,9.532534759,9.338548978
1.367,9.373394817,9.127997491,8.922463312
1.400,8.671529272,8.516176225,8.295233161
1.433,7.748490512,7.656843867,7.417227138
1.467,6.651406199,6.572822747,6.316135171
1.500,5.367005269,5.305209522,5.060000152
1.533,3.956539773,3.921591126,3.655088638
1.567,2.443400223,2.414504218,2.136344615
1.600,0.85951285,0.829016008,0.546923217
1.633,-0.716195125,-0.791351145,-1.050820713
1.667,-2.288078254,-2.368975392,-2.639087398
1.700,-3.772870217,-3.929041236,-4.150335219
1.733,-5.140380631,-5.355562808,-5.54970577
1.767,-6.338015764,-6.645820121,-6.833287412
1.800,-7.366294125,-7.768202287,-7.927877654
1.833,-8.223852595,-8.695421178,-8.825785044
1.867,-8.838261763,-9.378738792,-9.496004434
1.900,-9.21444123,-9.850167479,-9.935572965
1.933,-9.328251276,-10.06140314,-10.11145082
1.967,-9.200224551,-9.977405402,-10.01155461
2.000,-8.812955477,-9.652887546,-9.672098813
2.033,-8.168059339,-9.072545324,-9.07366184
2.067,-7.301721763,-8.2671852,-8.264540594
2.100,-6.232050623,-7.240920989,-7.220690427
2.133,-4.999070191,-6.023326964,-6.006509499
2.167,-3.617349254,-4.643854713,-4.635727955
2.200,-2.104255215,-3.149777833,-3.142633108
2.233,-0.562828671,-1.585059609,-1.606723909
2.267,1.020433681,0.032852759,-0.028633851
2.300,2.575800832,1.63076107,1.548574891
2.333,4.054017236,3.174532162,3.087465134
2.367,5.424297479,4.640267413,4.532773778
2.400,6.662786796,5.952393226,5.816816926
2.433,7.760111726,7.111424657,6.956325057
2.467,8.660502625,8.055595531,7.877787192
2.500,9.2948195,8.771160047,8.607900618
2.533,9.701302176,9.289021258,9.098604521
2.567,9.833656119,9.512725039,9.269456908
2.600,9.72026718,9.476658466,9.216694046
2.633,9.336364158,9.194473381,8.914109306
2.667,8.755660935,8.642134564,8.353357893
2.700,7.910098571,7.85138985,7.556059419
2.733,6.857001707,6.829913913,6.553555949
2.767,5.658851869,5.6363646,5.356350418
2.800,4.318593165,4.302143531,3.997016008
2.833,2.851171131,2.842716391,2.54480438
2.867,1.320861422,1.299251736,1.009466308
2.900,-0.229013092,-0.290420073,-0.560276331
2.933,-1.740861621,-1.840212208,-2.119117818
2.967,-3.205272121,-3.350179204,-3.622816832
3.000,-4.57784851,-4.804769961,-5.041956837
3.033,-5.823971538,-6.116602778,-6.342363416
3.067,-6.917066097,-7.300501645,-7.466968429
3.100,-7.831689534,-8.274248628,-8.416161701
3.133,-8.507114821,-9.036706755,-9.161273723
3.167,-8.945278913,-9.562575975,-9.652059454
3.200,-9.154421296,-9.845284671,-9.911032721
3.233,-9.100274963,-9.86779234,-9.931777079
3.267,-8.798303521,-9.618836128,-9.687470848
3.300,-8.257823806,-9.142405016,-9.188347327
3.333,-7.481420654,-8.424551491,-8.45930385
3.367,-6.51421994,-7.462455112,-7.493149545
3.400,-5.366751303,-6.31957523,-6.372260016
3.433,-4.075612279,-5.006761197,-5.075571866
3.467,-2.616331502,-3.573708317,-3.623752623
3.500,-1.109975623,-2.072363049,-2.119902357
3.533,0.420236374,-0.505851602,-0.539387116
3.567,1.977400115,1.061956761,1.026860718
3.600,3.472856405,2.597333607,2.559456883
3.633,4.842175778,4.057403448,4.011177352
3.667,6.119789874,5.421218032,5.344373903
3.700,7.229140992,6.605790885,6.527181168
3.733,8.152531666,7.622052725,7.513828701
3.767,8.841043942,8.427175074,8.299289554
3.800,9.342304638,9.011145444,8.847678421
3.833,9.556086455,9.306936679,9.12720217
3.867,9.547333805,9.374869703,9.126951905
3.900,9.279682848,9.154191318,8.909939231
3.933,8.758136347,8.710966459,8.45495247
3.967,8.030630615,8.029560842,7.755916702
4.000,7.091500453,7.123967753,6.8455661
4.033,5.961331574,6.011955281,5.69519639
4.067,4.692087624,4.729001524,4.402483372
4.100,3.304622621,3.321124141,3.009238258
4.133,1.853330374,1.841569364,1.497514181
4.167,0.356755983,0.316757363,-0.061629523
4.200,-1.162098257,-1.239243446,-1.614271972
4.233,-2.62480594,-2.744994421,-3.118045289
4.267,-4.011614068,-4.223191042,-4.54364626
4.300,-5.28629248,-5.550987089,-5.879777088
4.333,-6.405151862,-6.766837381,-7.059506216
4.367,-7.36169869,-7.797060427,-8.05165992
4.400,-8.116175813,-8.598140182,-8.84736429
4.433,-8.646918891,-9.196259665,-9.404631846
4.467,-8.935351803,-9.540346895,-9.749702822
4.500,-8.973649991,-9.658421352,-9.810155017
4.533,-8.760164111,-9.531046761,-9.659245842
4.567,-8.340369174,-9.139872945,-9.247883404
4.600,-7.675427651,-8.515507949,-8.595943682
4.633,-6.797013943,-7.67573134,-7.706305076
4.667,-5.72736382,-6.626325119,-6.637016696
4.700,-4.486280736,-5.404961233,-5.41341201
4.733,-3.106451031,-4.057631055,-4.041659921
4.767,-1.665448765,-2.603199208,-2.579513469
4.800,-0.173291118,-1.087408709,-1.052361904
4.833,1.332915271,0.471374818,0.498187222
4.867,2.821049547,1.985327737,2.004463954
4.900,4.228253528,3.45744656,3.480409574
4.933,5.533174952,4.812594001,4.818188104
4.967,6.691139818,6.029143469,6.036044952
5.000,7.668892156,7.085991279,7.084259004
5.033,8.46685783,7.937321833,7.930660101
5.067,9.022581878,8.575254705,8.539796575
5.100,9.371325646,8.992513265,8.917702802
5.133,9.428120881,9.160824234,9.035318715
5.167,9.256241454,9.062779428,8.905396948
5.200,8.841505854,8.683071808,8.517559189
5.233,8.20684181,8.077176367,7.914745322
5.267,7.338754189,7.253448359,7.070604419
5.300,6.323724138,6.23435077,6.008637927
5.333,5.117126651,5.062161652,4.796808767
5.367,3.815478086,3.750877165,3.445424563
5.400,2.383367608,2.313665697,1.987876425
5.433,0.912265325,0.843757247,0.47379745
5.467,-0.562248661,-0.670951568,-1.075171935
5.500,-2.000103917,-2.17374838,-2.587108596
5.533,-3.426608139,-3.634174799,-4.037545661
5.567,-4.726248083,-4.999070191,-5.409954701
5.600,-5.892581216,-6.228874123,-6.623267525
5.633,-6.873491174,-7.291801627,-7.685108263
5.667,-7.684335834,-8.174760006,-8.550201932
5.700,-8.279813554,-8.838734361,-9.200615159
5.733,-8.641246579,-9.268647071,-9.608610558
5.767,-8.78921191,-9.482148454,-9.763142818
5.800,-8.682920734,-9.412067214,-9.691620366
5.833,-8.31822634,-9.117418296,-9.361286201
5.867,-7.729730879,-8.588303375,-8.796387657
5.900,-6.933406947,-7.823000409,-8.009894104
5.933,-5.960713965,-6.864491082,-7.0091103
5.967,-4.81075244,-5.724544715,-5.834860323
6.000,-3.523609395,-4.436667308,-4.531664441
6.033,-2.145831646,-3.045880843,-3.099965988
6.067,-0.692541818,-1.570891111,-1.60251635
6.100,0.792681469,-0.051334761,-0.07733943
6.133,2.262828191,1.450322775,1.457714794
6.167,3.666027433,2.889032978,2.929021265
6.200,4.993472238,4.258369762,4.322765588
6.233,6.184559901,5.51929467,5.548466294
6.267,7.188085167,6.611218143,6.631865548
6.300,8.046673529,7.533878148,7.53706865
6.333,8.694686083,8.20716295,8.226940423
6.367,9.089444346,8.680800041,8.676778826
6.400,9.252080367,8.917511022,8.856172385
6.433,9.175456519,8.883001711,8.80538368
6.467,8.864343108,8.649582149,8.5008464
6.500,8.330635869,8.139639597,7.962920479
6.533,7.573745924,7.42892459,7.191002757
6.567,6.599028164,6.514616086,6.245675124
6.600,5.476927712,5.387569453,5.101414292
6.633,4.227828157,4.12447006,3.792079145
6.667,2.877851747,2.736742317,2.403406056
6.700,1.451426364,1.289956417,0.924394931
6.733,0.015888154,-0.217177516,-0.576737397
6.767,-1.450020544,-1.702203044,-2.059170127
6.800,-2.848362573,-3.183726599,-3.511952785
6.833,-4.169326851,-4.536683634,-4.879683735
6.867,-5.369211917,-5.793019181,-6.1468406
6.900,-6.423849662,-6.903541421,-7.233050779
6.933,-7.29235626,-7.818647349,-8.154522483
6.967,-7.945122154,-8.551579851,-8.850595022
7.000,-8.405708783,-9.062023364,-9.347441062
7.033,-8.616195283,-9.321237359,-9.59743883
7.067,-8.613417687,-9.343375904,-9.577126624
7.100,-8.37169096,-9.120733897,-9.318080165
7.133,-7.88420946,-8.660374248,-8.829502605
7.167,-7.167856,-7.992930838,-8.117020312
7.200,-6.249807947,-7.101370081,-7.206041016
7.233,-5.179813772,-6.032777033,-6.113810629
7.267,-3.960742921,-4.785760466,-4.869152227
7.300,-2.621941131,-3.441184514,-3.495504437
7.333,-1.21103555,-2.002572327,-2.049814235
7.367,0.238450176,-0.510404113,-0.548103081
7.400,1.673869526,0.976569896,0.959565457
7.433,3.067186677,2.448628938,2.442408662
7.467,4.407541409,3.842996168,3.833690982
7.500,5.618314172,5.107554837,5.109461913
7.533,6.684888707,6.24396308,6.251736481
7.567,7.584429621,7.198500565,7.196812695
7.600,8.28752542,7.966828476,7.945122154
7.633,8.760801758,8.503670153,8.47099674
7.667,9.022825871,8.779615311,8.774178815
7.700,9.042825793,8.848451615,8.808926295
7.733,8.813720194,8.693539644,8.581522743
7.767,8.359749504,8.260201358,8.13487813
7.800,7.698274277,7.594643369,7.451429792
7.833,6.841377057,6.755044784,6.580331349
7.867,5.797337871,5.718993088,5.504769094
7.900,4.606444008,4.506903895,4.260040246
7.933,3.299975504,3.200272444,2.92003312
7.967,1.914305938,1.798083178,1.460578138
8.000,0.485610185,0.357337504,-0.036293418
8.033,-0.933188935,-1.122977282,-1.536526446
8.067,-2.327152363,-2.563854109,-2.990240153
8.100,-3.661598761,-3.923514543,-4.399568055
8.133,-4.875069672,-5.216828166,-5.684017908
8.167,-5.970875321,-6.363464422,-6.830221431
8.200,-6.888848567,-7.326804781,-7.796032701
8.233,-7.622052725,-8.118387578,-8.575188575
8.267,-8.153360109,-8.70913267,-9.133788877
8.300,-8.45292342,-9.040112779,-9.442950022
8.333,-8.511308025,-9.169809848,-9.51489284
8.367,-8.337588279,-9.034568921,-9.365511634
8.400,-7.953470746,-8.695176565,-8.97648928
8.433,-7.331384354,-8.102132585,-8.32910029
8.467,-6.502050376,-7.292025997,-7.50895202
8.500,-5.517660426,-6.303935856,-6.481997365
8.533,-4.350438506,-5.153524953,-5.297630584
8.567,-3.068589025,-3.86167741,-3.959128075
8.600,-1.69616787,-2.498696352,-2.568935643
8.633,-0.293429363,-1.058889634,-1.102288656
8.667,1.134389656,0.408265883,0.391929013
8.700,2.551039529,1.862369914,1.855846306
8.733,3.894888726,3.281104039,3.271088546
8.767,5.129195391,4.568319109,4.574481195
8.800,6.246016849,5.718982735,5.730158838
8.833,7.187721276,6.718619443,6.707456413
8.867,7.968775616,7.549119513,7.514777544
8.900,8.534932768,8.155956951,8.112205502
8.933,8.852459315,8.552332367,8.450102738
8.967,8.949621982,8.687320571,8.617713391
9.000,8.810802422,8.573907394,8.482777284
9.033,8.450818095,8.258538992,8.126520448
9.067,7.8701741,7.689075629,7.52861172
9.100,7.069544191,6.92384823,6.682859072
9.133,6.116602778,5.972661905,5.695181179
9.167,5.006425895,4.868425327,4.533784963
9.200,3.747148307,3.629183037,3.264465393
9.233,2.421093373,2.284703975,1.880090555
9.267,1.020266506,0.870840044,
9.300,-0.366626059,-0.568857605,
9.333,-1.760551848,-2.00523705,
9.367,-3.086503035,-3.368773028,
9.400,-4.344553629,-4.652081311,
9.433,-5.471269634,-5.83641111,
9.467,-6.42280415,-6.862013752,
9.500,-7.221997075,-7.729630698,
9.533,-7.812016631,-8.387850965,
9.567,-8.204221061,-8.82549296,
9.600,-8.36196163,-9.021851347,
9.633,-8.288916227,-8.990914354,
9.667,-7.968775616,-8.731774639,
9.700,-7.434497016,-8.237554366,
9.733,-6.690469424,-7.534909351,
9.767,-5.776288859,-6.625874706,
9.800,-4.707440683,-5.544517666,
9.833,-3.494178894,-4.347187061,
9.867,-2.164070782,-3.024214737,
9.900,-0.780747099,-1.630566415,
9.933,0.622926626,-0.195804266,
9.967,2.027968438,1.234433355,
10.000,3.367450461,2.615690821,
10.033,4.624604264,3.9433995,
10.067,5.746937324,5.136331351,
10.100,6.720014786,6.178856788,
10.133,7.545427223,7.059506216,
10.167,8.164491069,7.741368622,
10.200,8.538411015,8.220755125,
10.233,8.735898149,8.455666782,
10.267,8.688633178,8.470256615,
10.300,8.400019131,8.234226069,
10.333,7.890212663,7.784813363,
10.367,7.165508182,7.100222884,
10.400,6.271984181,6.249873136,
10.433,5.215061715,5.220423557,
10.467,4.025081693,4.050339156,
10.500,2.738024295,2.755620075,
10.533,1.361415716,1.399128691,
10.567,-0.047418156,-0.00950244,
10.600,-1.442647731,-1.412428698,
10.633,-2.783040265,-2.784559844,
10.667,-4.029291379,-4.104415329,
10.700,-5.174696107,-5.301416347,
10.733,-6.193179106,-6.379230849,
10.767,-7.042039174,-7.308327156,
10.800,-7.696804574,-8.01349451,
10.833,-8.160500731,-8.527992953,
10.867,-8.389098678,-8.817035912,
10.900,-8.405044972,-8.887669344,
10.933,-8.207777896,-8.709604871,
10.967,-7.787172526,-8.284719707,
11.000,-7.142780105,-7.667819435,
11.033,-6.29460496,-6.858640301,
11.067,-5.268946976,-5.852867061,
11.100,-4.108831965,-4.715906861,
11.133,-2.852585057,-3.459662471,
11.167,-1.502334418,-2.11798227,
11.200,-0.114394659,-0.716440488,
11.233,1.276854717,0.717387019,
11.267,2.615327219,2.107286957,
11.300,3.88793679,3.436150897,
11.333,5.04179193,4.632400939,
11.367,6.060464458,5.738529963,
11.400,6.933820625,6.681858993,
11.433,7.618812918,7.41457305,
11.467,8.097265819,7.929815519,
11.500,8.364411524,8.249969906,
11.533,,8.325073763,
11.567,,8.191536038,
11.600,,7.815320861,
11.633,,7.237342745,
11.667,,6.483898796,
11.700,,5.514766844,
11.733,,4.42231523,
11.767,,3.174060443,
11.800,,1.855312712,
11.833,,0.469539501,
11.867,,-0.92230089,
11.900,,-2.285278255,
11.933,,-3.599798919,
11.967,,,
12.000,,,
12.033,,,
12.067,,,
12.100,,,
12.133,,,